#    s        x        y     Ue/Vinf    Dstar     Theta      Cf       H       H*        P         m          K          tau         Di
   0.00000  1.00000  0.00126  1.03167  0.020221  0.002418 -0.000234    8.3617    1.5786  0.00257  0.02086  0.00419
   0.00840  0.99168  0.00242  1.03213  0.020214  0.002408 -0.000264    8.3933    1.5572  0.00257  0.02086  0.00412
   0.01982  0.98037  0.00398  1.03264  0.019957  0.002397 -0.000266    8.3248    1.5565  0.00256  0.02061  0.00411
   0.03304  0.96727  0.00576  1.03321  0.019579  0.002385 -0.000269    8.2080    1.5552  0.00255  0.02023  0.00409
   0.04772  0.95272  0.00771  1.03384  0.019084  0.002373 -0.000271    8.0436    1.5534  0.00254  0.01973  0.00407
   0.06337  0.93720  0.00974  1.03452  0.018501  0.002359 -0.000275    7.8422    1.5513  0.00252  0.01914  0.00405
   0.07959  0.92112  0.01182  1.03525  0.017856  0.002345 -0.000279    7.6146    1.5490  0.00251  0.01849  0.00403
   0.09610  0.90474  0.01389  1.03604  0.017174  0.002330 -0.000283    7.3698    1.5466  0.00250  0.01779  0.00401
   0.11275  0.88821  0.01594  1.03689  0.016470  0.002315 -0.000288    7.1148    1.5441  0.00249  0.01708  0.00398
   0.12949  0.87160  0.01796  1.03782  0.015757  0.002299 -0.000294    6.8546    1.5417  0.00248  0.01635  0.00396
   0.14626  0.85494  0.01994  1.03883  0.015042  0.002282 -0.000300    6.5928    1.5394  0.00246  0.01563  0.00394
   0.16305  0.83827  0.02189  1.03994  0.014332  0.002263 -0.000307    6.3323    1.5373  0.00245  0.01490  0.00391
   0.17984  0.82158  0.02381  1.04117  0.013633  0.002244 -0.000316    6.0756    1.5354  0.00243  0.01419  0.00389
   0.19665  0.80488  0.02569  1.04254  0.012948  0.002223 -0.000324    5.8244    1.5336  0.00242  0.01350  0.00386
   0.21346  0.78817  0.02753  1.04405  0.012282  0.002201 -0.000332    5.5805    1.5321  0.00240  0.01282  0.00384
   0.23027  0.77146  0.02934  1.04573  0.011638  0.002177 -0.000336    5.3453    1.5308  0.00238  0.01217  0.00381
   0.24707  0.75475  0.03111  1.04759  0.011018  0.002152 -0.000338    5.1199    1.5297  0.00236  0.01154  0.00378
   0.26388  0.73803  0.03284  1.04965  0.010424  0.002125 -0.000333    4.9052    1.5289  0.00234  0.01094  0.00376
   0.28068  0.72132  0.03453  1.05191  0.009859  0.002097 -0.000319    4.7021    1.5284  0.00232  0.01037  0.00373
   0.29748  0.70460  0.03619  1.05440  0.009322  0.002066 -0.000292    4.5110    1.5281  0.00230  0.00983  0.00370
   0.31427  0.68789  0.03781  1.05710  0.008816  0.002035 -0.000251    4.3323    1.5280  0.00227  0.00932  0.00367
   0.33105  0.67118  0.03938  1.05999  0.008339  0.002002 -0.000193    4.1652    1.5280  0.00225  0.00884  0.00364
   0.34783  0.65447  0.04092  1.06307  0.007893  0.001968 -0.000119    4.0103    1.5281  0.00222  0.00839  0.00361
   0.36460  0.63777  0.04241  1.06636  0.007477  0.001933 -0.000028    3.8682    1.5285  0.00220  0.00797  0.00358
   0.38135  0.62108  0.04387  1.06988  0.007090  0.001896  0.000078    3.7392    1.5292  0.00217  0.00759  0.00355
   0.39809  0.60440  0.04527  1.07360  0.006732  0.001858  0.000196    3.6231    1.5302  0.00214  0.00723  0.00352
   0.41482  0.58772  0.04663  1.07752  0.006401  0.001819  0.000326    3.5192    1.5315  0.00211  0.00690  0.00349
   0.43154  0.57106  0.04794  1.08160  0.006096  0.001779  0.000464    3.4267    1.5331  0.00208  0.00659  0.00345
   0.44823  0.55441  0.04920  1.08582  0.005814  0.001738  0.000610    3.3446    1.5348  0.00205  0.00631  0.00342
   0.46491  0.53778  0.05041  1.09015  0.005552  0.001697  0.000760    3.2715    1.5367  0.00202  0.00605  0.00338
   0.48157  0.52116  0.05156  1.09456  0.005310  0.001656  0.000915    3.2066    1.5386  0.00198  0.00581  0.00334
   0.49820  0.50456  0.05265  1.09902  0.005084  0.001615  0.001074    3.1488    1.5406  0.00195  0.00559  0.00330
   0.51481  0.48798  0.05368  1.10352  0.004872  0.001573  0.001236    3.0970    1.5426  0.00192  0.00538  0.00326
   0.53140  0.47143  0.05465  1.10804  0.004674  0.001532  0.001402    3.0505    1.5445  0.00188  0.00518  0.00322
   0.54796  0.45489  0.05555  1.11257  0.004486  0.001491  0.001571    3.0085    1.5465  0.00185  0.00499  0.00318
   0.56448  0.43839  0.05639  1.11709  0.004308  0.001450  0.001744    2.9704    1.5483  0.00181  0.00481  0.00313
   0.58098  0.42191  0.05714  1.12159  0.004139  0.001410  0.001921    2.9356    1.5502  0.00177  0.00464  0.00308
   0.59744  0.40546  0.05782  1.12607  0.003977  0.001370  0.002105    2.9036    1.5520  0.00174  0.00448  0.00303
   0.61386  0.38905  0.05842  1.13052  0.003821  0.001329  0.002294    2.8742    1.5537  0.00170  0.00432  0.00298
   0.63024  0.37268  0.05893  1.13494  0.003670  0.001289  0.002491    2.8468    1.5554  0.00166  0.00417  0.00293
   0.64657  0.35635  0.05935  1.13931  0.003525  0.001249  0.002696    2.8214    1.5571  0.00162  0.00402  0.00288
   0.66286  0.34007  0.05967  1.14362  0.003384  0.001209  0.002911    2.7976    1.5587  0.00158  0.00387  0.00282
   0.67910  0.32383  0.05989  1.14787  0.003246  0.001170  0.003136    2.7752    1.5602  0.00154  0.00373  0.00276
   0.69527  0.30766  0.06000  1.15204  0.003112  0.001130  0.003374    2.7541    1.5618  0.00150  0.00358  0.00270
   0.71139  0.29154  0.06000  1.15612  0.002980  0.001090  0.003627    2.7341    1.5633  0.00146  0.00345  0.00263
   0.72743  0.27550  0.05988  1.16010  0.002852  0.001050  0.003895    2.7152    1.5647  0.00141  0.00331  0.00257
   0.74340  0.25953  0.05963  1.16394  0.002725  0.001010  0.004181    2.6972    1.5662  0.00137  0.00317  0.00250
   0.75928  0.24366  0.05924  1.16765  0.002600  0.000970  0.004489    2.6800    1.5676  0.00132  0.00304  0.00242
   0.77506  0.22788  0.05871  1.17117  0.002477  0.000930  0.004821    2.6636    1.5690  0.00128  0.00290  0.00234
   0.79074  0.21222  0.05803  1.17449  0.002356  0.000890  0.005180    2.6479    1.5703  0.00123  0.00277  0.00226
   0.80628  0.19670  0.05718  1.17755  0.002235  0.000849  0.005572    2.6328    1.5717  0.00118  0.00263  0.00218
   0.82167  0.18135  0.05616  1.18032  0.002115  0.000808  0.006002    2.6183    1.5730  0.00113  0.00250  0.00209
   0.83688  0.16619  0.05497  1.18273  0.001996  0.000767  0.006477    2.6042    1.5743  0.00107  0.00236  0.00200
   0.85186  0.15127  0.05358  1.18469  0.001878  0.000725  0.007006    2.5906    1.5756  0.00102  0.00222  0.00190
   0.86655  0.13666  0.05200  1.18612  0.001760  0.000683  0.007598    2.5773    1.5769  0.00096  0.00209  0.00180
   0.88087  0.12246  0.05022  1.18689  0.001642  0.000641  0.008267    2.5641    1.5782  0.00090  0.00195  0.00169
   0.89470  0.10877  0.04824  1.18684  0.001526  0.000598  0.009026    2.5512    1.5795  0.00084  0.00181  0.00158
   0.90789  0.09575  0.04609  1.18579  0.001412  0.000556  0.009888    2.5382    1.5808  0.00078  0.00167  0.00147
   0.92028  0.08358  0.04381  1.18356  0.001301  0.000515  0.010867    2.5251    1.5822  0.00072  0.00154  0.00135
   0.93169  0.07242  0.04142  1.17995  0.001194  0.000475  0.011971    2.5119    1.5836  0.00066  0.00141  0.00124
   0.94200  0.06239  0.03900  1.17478  0.001093  0.000438  0.013205    2.4985    1.5850  0.00060  0.00128  0.00112
   0.95118  0.05354  0.03659  1.16790  0.001000  0.000402  0.014569    2.4849    1.5865  0.00055  0.00117  0.00102
   0.95926  0.04581  0.03424  1.15917  0.000913  0.000370  0.016061    2.4710    1.5881  0.00050  0.00106  0.00091
   0.96635  0.03910  0.03196  1.14841  0.000834  0.000340  0.017679    2.4569    1.5897  0.00045  0.00096  0.00082
   0.97255  0.03329  0.02976  1.13540  0.000762  0.000312  0.019427    2.4425    1.5914  0.00040  0.00086  0.00073
   0.97802  0.02826  0.02764  1.11980  0.000696  0.000287  0.021304    2.4277    1.5932  0.00036  0.00078  0.00064
   0.98286  0.02387  0.02560  1.10117  0.000635  0.000263  0.023310    2.4125    1.5951  0.00032  0.00070  0.00056
   0.98718  0.02003  0.02361  1.07891  0.000579  0.000242  0.025440    2.3969    1.5971  0.00028  0.00062  0.00048
   0.99107  0.01666  0.02167  1.05225  0.000527  0.000221  0.027675    2.3808    1.5991  0.00025  0.00055  0.00041
   0.99460  0.01369  0.01977  1.02018  0.000480  0.000203  0.029976    2.3643    1.6013  0.00021  0.00049  0.00035
   0.99781  0.01108  0.01789  0.98141  0.000436  0.000186  0.032266    2.3474    1.6036  0.00018  0.00043  0.00028
   1.00078  0.00879  0.01602  0.93433  0.000396  0.000170  0.034409    2.3301    1.6060  0.00015  0.00037  0.00022
   1.00352  0.00678  0.01415  0.87698  0.000359  0.000155  0.036184    2.3126    1.6084  0.00012  0.00031  0.00017
   1.00607  0.00505  0.01227  0.80714  0.000326  0.000142  0.037253    2.2954    1.6109  0.00009  0.00026  0.00012
   1.00847  0.00358  0.01038  0.72250  0.000298  0.000131  0.037144    2.2786    1.6134  0.00007  0.00021  0.00008
   1.01072  0.00236  0.00848  0.62123  0.000273  0.000121  0.035271    2.2633    1.6158  0.00005  0.00017  0.00005
   1.01286  0.00140  0.00657  0.50269  0.000254  0.000113  0.031112    2.2496    1.6179  0.00003  0.00013  0.00002
   1.01490  0.00070  0.00466  0.36860  0.000240  0.000107  0.024379    2.2396    1.6195  0.00001  0.00009  0.00001
   1.01685  0.00024  0.00276  0.22323  0.000231  0.000103  0.015438    2.2319    1.6207  0.00001  0.00005  0.00000
   1.01872  0.00003  0.00091  0.07387  0.000227  0.000102  0.005198    2.2295    1.6211  0.00000  0.00002  0.00000
   1.02053  0.00003 -0.00091 -0.07387  0.000227  0.000102  0.005197    2.2295    1.6211  0.00000 -0.00002 -0.00000
   1.02240  0.00024 -0.00276 -0.22323  0.000231  0.000103  0.015437    2.2319    1.6207  0.00001 -0.00005 -0.00000
   1.02434  0.00070 -0.00466 -0.36860  0.000240  0.000107  0.024378    2.2396    1.6195  0.00001 -0.00009 -0.00001
   1.02638  0.00140 -0.00657 -0.50269  0.000254  0.000113  0.031112    2.2496    1.6179  0.00003 -0.00013 -0.00002
   1.02852  0.00236 -0.00848 -0.62123  0.000273  0.000121  0.035271    2.2633    1.6158  0.00005 -0.00017 -0.00005
   1.03078  0.00358 -0.01038 -0.72250  0.000298  0.000131  0.037143    2.2786    1.6134  0.00007 -0.00021 -0.00008
   1.03317  0.00505 -0.01227 -0.80714  0.000326  0.000142  0.037253    2.2954    1.6109  0.00009 -0.00026 -0.00012
   1.03573  0.00678 -0.01415 -0.87698  0.000359  0.000155  0.036184    2.3126    1.6084  0.00012 -0.00031 -0.00017
   1.03847  0.00879 -0.01602 -0.93433  0.000396  0.000170  0.034409    2.3301    1.6060  0.00015 -0.00037 -0.00022
   1.04143  0.01108 -0.01789 -0.98141  0.000436  0.000186  0.032266    2.3474    1.6036  0.00018 -0.00043 -0.00028
   1.04465  0.01369 -0.01977 -1.02018  0.000480  0.000203  0.029976    2.3643    1.6013  0.00021 -0.00049 -0.00035
   1.04817  0.01666 -0.02167 -1.05225  0.000527  0.000221  0.027675    2.3808    1.5991  0.00025 -0.00055 -0.00041
   1.05206  0.02003 -0.02361 -1.07891  0.000579  0.000242  0.025440    2.3969    1.5971  0.00028 -0.00062 -0.00048
   1.05638  0.02387 -0.02560 -1.10117  0.000635  0.000263  0.023310    2.4125    1.5951  0.00032 -0.00070 -0.00056
   1.06122  0.02826 -0.02764 -1.11980  0.000696  0.000287  0.021304    2.4277    1.5932  0.00036 -0.00078 -0.00064
   1.06669  0.03329 -0.02976 -1.13540  0.000762  0.000312  0.019427    2.4425    1.5914  0.00040 -0.00086 -0.00073
   1.07290  0.03910 -0.03196 -1.14841  0.000834  0.000340  0.017679    2.4569    1.5897  0.00045 -0.00096 -0.00082
   1.07998  0.04581 -0.03424 -1.15917  0.000913  0.000370  0.016061    2.4710    1.5881  0.00050 -0.00106 -0.00091
   1.08806  0.05354 -0.03659 -1.16790  0.001000  0.000402  0.014569    2.4849    1.5865  0.00055 -0.00117 -0.00102
   1.09724  0.06239 -0.03900 -1.17478  0.001093  0.000438  0.013205    2.4985    1.5850  0.00060 -0.00128 -0.00112
   1.10756  0.07242 -0.04142 -1.17995  0.001194  0.000475  0.011971    2.5119    1.5836  0.00066 -0.00141 -0.00124
   1.11897  0.08358 -0.04381 -1.18356  0.001301  0.000515  0.010867    2.5251    1.5822  0.00072 -0.00154 -0.00135
   1.13135  0.09575 -0.04609 -1.18579  0.001412  0.000556  0.009888    2.5382    1.5808  0.00078 -0.00167 -0.00147
   1.14454  0.10877 -0.04824 -1.18684  0.001526  0.000598  0.009026    2.5512    1.5795  0.00084 -0.00181 -0.00158
   1.15837  0.12246 -0.05022 -1.18689  0.001642  0.000641  0.008267    2.5641    1.5782  0.00090 -0.00195 -0.00169
   1.17269  0.13666 -0.05200 -1.18612  0.001760  0.000683  0.007598    2.5773    1.5769  0.00096 -0.00209 -0.00180
   1.18738  0.15127 -0.05358 -1.18469  0.001878  0.000725  0.007006    2.5906    1.5756  0.00102 -0.00222 -0.00190
   1.20236  0.16619 -0.05497 -1.18273  0.001996  0.000767  0.006477    2.6042    1.5743  0.00107 -0.00236 -0.00200
   1.21757  0.18135 -0.05616 -1.18032  0.002115  0.000808  0.006002    2.6183    1.5730  0.00113 -0.00250 -0.00209
   1.23296  0.19670 -0.05718 -1.17755  0.002235  0.000849  0.005572    2.6328    1.5717  0.00118 -0.00263 -0.00218
   1.24851  0.21222 -0.05803 -1.17449  0.002356  0.000890  0.005180    2.6479    1.5703  0.00123 -0.00277 -0.00226
   1.26418  0.22788 -0.05871 -1.17117  0.002477  0.000930  0.004821    2.6636    1.5690  0.00128 -0.00290 -0.00234
   1.27996  0.24366 -0.05924 -1.16765  0.002600  0.000970  0.004489    2.6800    1.5676  0.00132 -0.00304 -0.00242
   1.29584  0.25953 -0.05963 -1.16394  0.002725  0.001010  0.004181    2.6972    1.5662  0.00137 -0.00317 -0.00250
   1.31181  0.27550 -0.05988 -1.16010  0.002852  0.001050  0.003895    2.7152    1.5647  0.00141 -0.00331 -0.00257
   1.32785  0.29154 -0.06000 -1.15612  0.002980  0.001090  0.003627    2.7341    1.5633  0.00146 -0.00345 -0.00263
   1.34397  0.30766 -0.06000 -1.15204  0.003112  0.001130  0.003374    2.7541    1.5618  0.00150 -0.00358 -0.00270
   1.36015  0.32383 -0.05989 -1.14787  0.003246  0.001170  0.003136    2.7752    1.5602  0.00154 -0.00373 -0.00276
   1.37638  0.34007 -0.05967 -1.14362  0.003384  0.001209  0.002911    2.7976    1.5587  0.00158 -0.00387 -0.00282
   1.39267  0.35635 -0.05935 -1.13931  0.003525  0.001249  0.002696    2.8214    1.5571  0.00162 -0.00402 -0.00288
   1.40900  0.37268 -0.05893 -1.13494  0.003670  0.001289  0.002491    2.8468    1.5554  0.00166 -0.00417 -0.00293
   1.42538  0.38905 -0.05842 -1.13052  0.003821  0.001329  0.002294    2.8742    1.5537  0.00170 -0.00432 -0.00298
   1.44181  0.40546 -0.05782 -1.12607  0.003977  0.001370  0.002105    2.9036    1.5520  0.00174 -0.00448 -0.00303
   1.45826  0.42191 -0.05714 -1.12159  0.004139  0.001410  0.001921    2.9356    1.5502  0.00177 -0.00464 -0.00308
   1.47476  0.43839 -0.05639 -1.11709  0.004308  0.001450  0.001744    2.9704    1.5484  0.00181 -0.00481 -0.00313
   1.49129  0.45489 -0.05555 -1.11257  0.004486  0.001491  0.001571    3.0085    1.5465  0.00185 -0.00499 -0.00318
   1.50784  0.47143 -0.05465 -1.10804  0.004674  0.001532  0.001402    3.0505    1.5445  0.00188 -0.00518 -0.00322
   1.52443  0.48798 -0.05368 -1.10352  0.004872  0.001573  0.001236    3.0970    1.5426  0.00192 -0.00538 -0.00326
   1.54104  0.50456 -0.05265 -1.09902  0.005084  0.001615  0.001074    3.1488    1.5406  0.00195 -0.00559 -0.00330
   1.55768  0.52116 -0.05156 -1.09456  0.005310  0.001656  0.000915    3.2066    1.5386  0.00198 -0.00581 -0.00334
   1.57433  0.53778 -0.05041 -1.09015  0.005552  0.001697  0.000760    3.2715    1.5367  0.00202 -0.00605 -0.00338
   1.59101  0.55441 -0.04920 -1.08582  0.005814  0.001738  0.000610    3.3446    1.5348  0.00205 -0.00631 -0.00342
   1.60771  0.57106 -0.04794 -1.08160  0.006096  0.001779  0.000464    3.4267    1.5331  0.00208 -0.00659 -0.00345
   1.62442  0.58772 -0.04663 -1.07752  0.006401  0.001819  0.000326    3.5192    1.5315  0.00211 -0.00690 -0.00349
   1.64115  0.60440 -0.04527 -1.07360  0.006732  0.001858  0.000196    3.6231    1.5302  0.00214 -0.00723 -0.00352
   1.65789  0.62108 -0.04387 -1.06988  0.007090  0.001896  0.000078    3.7392    1.5292  0.00217 -0.00759 -0.00355
   1.67465  0.63777 -0.04241 -1.06636  0.007477  0.001933 -0.000028    3.8682    1.5285  0.00220 -0.00797 -0.00358
   1.69141  0.65447 -0.04092 -1.06307  0.007893  0.001968 -0.000119    4.0103    1.5281  0.00222 -0.00839 -0.00361
   1.70819  0.67118 -0.03938 -1.05999  0.008339  0.002002 -0.000193    4.1652    1.5280  0.00225 -0.00884 -0.00364
   1.72497  0.68789 -0.03781 -1.05710  0.008816  0.002035 -0.000251    4.3323    1.5280  0.00227 -0.00932 -0.00367
   1.74177  0.70460 -0.03619 -1.05440  0.009322  0.002066 -0.000292    4.5110    1.5281  0.00230 -0.00983 -0.00370
   1.75856  0.72132 -0.03453 -1.05191  0.009859  0.002097 -0.000319    4.7021    1.5284  0.00232 -0.01037 -0.00373
   1.77536  0.73803 -0.03284 -1.04965  0.010424  0.002125 -0.000333    4.9052    1.5289  0.00234 -0.01094 -0.00376
   1.79217  0.75475 -0.03111 -1.04759  0.011018  0.002152 -0.000338    5.1199    1.5297  0.00236 -0.01154 -0.00378
   1.80898  0.77146 -0.02934 -1.04573  0.011638  0.002177 -0.000336    5.3453    1.5308  0.00238 -0.01217 -0.00381
   1.82579  0.78817 -0.02753 -1.04405  0.012282  0.002201 -0.000332    5.5805    1.5321  0.00240 -0.01282 -0.00384
   1.84259  0.80488 -0.02569 -1.04254  0.012948  0.002223 -0.000324    5.8244    1.5336  0.00242 -0.01350 -0.00386
   1.85940  0.82158 -0.02381 -1.04117  0.013633  0.002244 -0.000316    6.0756    1.5353  0.00243 -0.01419 -0.00389
   1.87620  0.83827 -0.02189 -1.03994  0.014332  0.002263 -0.000307    6.3323    1.5373  0.00245 -0.01490 -0.00391
   1.89299  0.85494 -0.01994 -1.03883  0.015042  0.002282 -0.000300    6.5928    1.5394  0.00246 -0.01563 -0.00394
   1.90976  0.87160 -0.01796 -1.03782  0.015757  0.002299 -0.000294    6.8546    1.5417  0.00248 -0.01635 -0.00396
   1.92649  0.88821 -0.01594 -1.03689  0.016470  0.002315 -0.000288    7.1148    1.5441  0.00249 -0.01708 -0.00398
   1.94315  0.90474 -0.01389 -1.03604  0.017174  0.002330 -0.000283    7.3698    1.5466  0.00250 -0.01779 -0.00401
   1.95966  0.92112 -0.01182 -1.03525  0.017856  0.002345 -0.000279    7.6146    1.5490  0.00251 -0.01849 -0.00403
   1.97587  0.93720 -0.00974 -1.03452  0.018501  0.002359 -0.000275    7.8422    1.5513  0.00252 -0.01914 -0.00405
   1.99152  0.95272 -0.00771 -1.03384  0.019084  0.002373 -0.000271    8.0436    1.5534  0.00254 -0.01973 -0.00407
   2.00620  0.96727 -0.00576 -1.03321  0.019579  0.002385 -0.000269    8.2080    1.5552  0.00255 -0.02023 -0.00409
   2.01942  0.98037 -0.00398 -1.03264  0.019957  0.002397 -0.000266    8.3248    1.5565  0.00256 -0.02061 -0.00411
   2.03084  0.99168 -0.00242 -1.03213  0.020214  0.002408 -0.000264    8.3933    1.5572  0.00257 -0.02086 -0.00412
   2.03924  1.00000 -0.00126 -1.03167  0.020221  0.002418 -0.000234    8.3617    1.5786  0.00257 -0.02086 -0.00419
   2.03924  1.00010 -0.00000  1.03167  0.042937  0.004836  0.000000    8.8777
   2.04764  1.00850  0.00000  1.01841  0.041506  0.005519  0.000000    7.5206
   2.05721  1.01807  0.00000  1.00168  0.039414  0.006390  0.000000    6.1685
   2.06811  1.02897  0.00000  0.98122  0.036813  0.007467  0.000000    4.9302
   2.08053  1.04139  0.00000  0.95474  0.033722  0.008886  0.000000    3.7948
   2.09468  1.05553  0.00000  0.92766  0.030104  0.010365  0.000000    2.9042
   2.11079  1.07165  0.00000  0.90953  0.026107  0.011351  0.000000    2.3000
   2.12915  1.09000  0.00000  0.90170  0.022159  0.011760  0.000000    1.8843
   2.15005  1.11091  0.00000  0.90372  0.018669  0.011661  0.000000    1.6009
   2.17387  1.13473  0.00000  0.91267  0.015883  0.011266  0.000000    1.4098
   2.20100  1.16186  0.00000  0.92465  0.013817  0.010785  0.000000    1.2812
   2.23190  1.19276  0.00000  0.93674  0.012345  0.010341  0.000000    1.1938
   2.26711  1.22797  0.00000  0.94755  0.011307  0.009972  0.000000    1.1339
   2.30721  1.26807  0.00000  0.95673  0.010573  0.009677  0.000000    1.0926
   2.35289  1.31375  0.00000  0.96436  0.010050  0.009443  0.000000    1.0643
   2.40493  1.36578  0.00000  0.97067  0.009672  0.009257  0.000000    1.0449
   2.46420  1.42506  0.00000  0.97588  0.009396  0.009108  0.000000    1.0317
   2.53172  1.49258  0.00000  0.98018  0.009191  0.008987  0.000000    1.0227
